Time,Signal
0.0,7.353371151128519
0.001,7.469388630672672
0.002,7.583834710968683
0.003,7.696627242152237
0.004,7.807684714625796
0.005,7.916926330586022
0.006,8.024272075136219
0.007,8.12964278691779
0.008,8.232960228195164
0.009000000000000001,8.334147154329004
0.01,8.433127382573034
0.011,8.529825860130323
0.012,8.624168731405549
0.013000000000000001,8.716083404390346
0.014,8.805498616119642
0.015,8.892344497137639
0.016,8.976552634912938
0.017,9.058056136143264
0.018000000000000002,9.136789687891124
0.019,9.212689617492837
0.02,9.285693951184394
0.021,9.355742471388735
0.022,9.422776772610279
0.023,9.486740315883637
0.024,9.547578481724916
0.025,9.605238621535147
0.026000000000000002,9.65967010740695
0.027,9.710824380286793
0.028,9.758654996446863
0.029,9.803117672221907
0.03,9.844170326968118
0.031,9.881773124202658
0.032,9.915888510884052
0.033,9.94648125479544
0.034,9.973518479994326
0.035,9.99696970029423
0.036000000000000004,10.016806850745507
0.037,10.03300431708428
0.038,10.045538963120457
0.039,10.054390156037538
0.04,10.059539789578908
0.041,10.060972305097206
0.042,10.058674710445349
0.043000000000000003,10.05263659668971
0.044,10.042850152628038
0.045,10.029310177096587
0.046,10.012014089053114
0.047,9.990961935424288
0.048,9.96615639670822
0.049,9.937602790324844
0.05,9.905309071708952
0.051000000000000004,9.869285833142762
0.052000000000000005,9.82954630032697
0.053,9.786106326691403
0.054,9.738984385448308
0.055,9.688201559393562
0.056,9.633781528463073
0.057,9.575750555053729
0.058,9.514137467120317
0.059000000000000004,9.448973639061931
0.06,9.380292970413308
0.061,9.308131862358726
0.062,9.232529192087988
0.063,9.15352628501601
0.064,9.071166884889614
0.065,8.985497121806942
0.066,8.896565478176921
0.067,8.80442275264813
0.068,8.709122022038196
0.069,8.610718601296792
0.07,8.509270001537129
0.07100000000000001,8.4048358861725
0.07200000000000001,8.29747802519637
0.073,8.187260247646044
0.074,8.07424839229174
0.075,7.958510256594509
0.076,7.840115543977995
0.077,7.719135809460645
0.078,7.595644403696471
0.079,7.4697164154739255
0.08,7.341428612723886
0.081,7.210859382089113
0.082,7.07808866710889
0.083,6.94319790507379
0.084,6.806269962606798
0.085,6.667389070028102
0.08600000000000001,6.526640754562119
0.08700000000000001,6.384111772446209
0.088,6.2398900400017165
0.089,6.0940645637287805
0.09,5.9467253694873765
0.091,5.7979634308277666
0.092,5.647870596534391
0.093,5.496539517447967
0.094,5.344063572631088
0.095,5.190536794943392
0.096,5.036053796092737
0.097,4.880709691229403
0.098,4.724600023150668
0.099,4.5678206861835084
0.1,4.410467849813429
0.101,4.252637882127612
0.10200000000000001,4.094427273140816
0.10300000000000001,3.9359325580724196
0.10400000000000001,3.7772502406431485
0.105,3.6184767164599148
0.106,3.4597081965570715
0.107,3.3010406311623424
0.108,3.1425696337552678
0.109,2.9843904054858728
0.11,2.826597660020823
0.111,2.669285548883924
0.112,2.5125475873573753
0.113,2.3564765810095354
0.114,2.201164552914519
0.115,2.0467026716281063
0.116,1.893181179983789
0.117,1.7406893247720454
0.11800000000000001,1.5893152873649647
0.11900000000000001,1.4391461153475298
0.12,1.2902676552158818
0.121,1.1427644862018338
0.122,0.9967198552818972
0.123,0.8522156134278653
0.124,0.7093321531549179
0.125,0.5681483474218649
0.126,0.42874148993697814
0.127,0.2911872369214368
0.128,0.15555955038106162
0.129,0.021930642935606315
0.13,-0.10962907574664515
0.131,-0.23905105086270284
0.132,-0.366268632692452
0.133,-0.49121712507684934
0.134,-0.6138338321153693
0.135,-0.734058103042855
0.136,-0.8518313752477584
0.137,-0.9670972153954871
0.138,-1.0798013586223083
0.139,-1.189891745767136
0.14,-1.297318558610341
0.14100000000000001,-1.4020342530906038
0.14200000000000002,-1.5039935904727268
0.14300000000000002,-1.603153666441263
0.14400000000000002,-1.6994739380967239
0.145,-1.7929162488331423
0.146,-1.8834448510777473
0.147,-1.9710264268754205
0.148,-2.0556301063027895
0.149,-2.137227483698677
0.15,-2.2157926316997454
0.151,-2.2913021130722466
0.152,-2.363734990332765
0.153,-2.4330728331529734
0.154,-2.4992997235454686
0.155,-2.5624022588297795
0.156,-2.622369552379764
0.157,-2.6791932321556517
0.158,-2.732867437025993
0.159,-2.7833888108869345
0.16,-2.830756494588181
0.161,-2.8749721156770685
0.162,-2.9160397759742427
0.163,-2.9539660369963396
0.164,-2.988759903243132
0.165,-3.0204328033685743
0.166,-3.0489985692570585
0.167,-3.0744734130281963
0.168,-3.0968759019952996
0.169,-3.1162269316046425
0.17,-3.1325496963843857
0.171,-3.1458696589339477
0.17200000000000001,-3.156214516986295
0.17300000000000001,-3.1636141685774666
0.17400000000000002,-3.1681006753593297
0.17500000000000002,-3.1697082240932613
0.176,-3.168473086364093
0.177,-3.1644335765552594
0.178,-3.1576300081277004
0.179,-3.148104648246548
0.18,-3.135901670801136
0.181,-3.121067107865298
0.182,-3.1036487996463444
0.183,-3.083696342972408
0.184,-3.061261038369179
0.185,-3.0363958357783023
0.186,-3.009155278970849
0.187,-2.979595448710521
0.188,-2.947773904722216
0.189,-2.9137496265227365
0.19,-2.8775829531712946
0.191,-2.8393355219984864
0.192,-2.799070206373223
0.193,-2.75685105256792
0.194,-2.712743215783011
0.195,-2.666812895392553
0.196,-2.6191272694732968
0.197,-2.569754428680206
0.198,-2.518763309531837
0.199,-2.466223627169608
0.2,-2.4122058076551434
0.201,-2.3567809198704555
0.202,-2.3000206070857696
0.203,-2.241997018260149
0.20400000000000001,-2.1827827391401553
0.20500000000000002,-2.1224507232218643
0.20600000000000002,-2.0610742226415946
0.20700000000000002,-1.998726719060561
0.20800000000000002,-1.935481854608776
0.209,-1.8714133629530276
0.21,-1.8065950005538602
0.211,-1.741100478175944
0.212,-1.6750033927159276
0.213,-1.6083771594115808
0.214,-1.541294944495287
0.215,-1.4738295983547252
0.216,-1.4060535892626338
0.217,-1.338038937737254
0.218,-1.2698571515940011
0.219,-1.2015791617483838
0.22,-1.1332752588292094
0.221,-1.065015030660288
0.222,-0.9968673006679469
0.223,-0.9289000672705272
0.224,-0.8611804443051849
0.225,-0.7937746025460248
0.226,-0.7267477123666093
0.227,-0.6601638875985338
0.228,-0.5940861306366596
0.229,-0.5285762788401518
0.23,-0.4636949522772498
0.231,-0.3995015028602593
0.232,-0.3360539649157792
0.233,-0.2734090072338202
0.234,-0.21162188663784498
0.23500000000000001,-0.15074640311627463
0.23600000000000002,-0.0908348565544228
0.23700000000000002,-0.03193800510412981
0.23800000000000002,0.025894974773187807
0.23900000000000002,0.08261652655613605
0.24,0.13818075017330633
0.241,0.19254343674313934
0.242,0.2456621015148983
0.243,0.29749601498387435
0.244,0.34800623215568693
0.245,0.39715561993643944
0.246,0.4449088826273182
0.247,0.4912325855041235
0.248,0.5360951764641677
0.249,0.5794670057247684
0.25,0.6213203435596419
0.251,0.661629396061346
0.252,0.7003703189198687
0.253,0.7375212292094586
0.254,0.7730622151777451
0.255,0.8069753440331
0.256,0.839244667728217
0.257,0.8698562267398666
0.258,0.8987980518466205
0.259,0.9260601639084634
0.26,0.9516345716540271
0.261,0.9755152674831826
0.262,0.9976982212946237
0.263,1.018181372350053
0.264,1.0369646191883979
0.265,1.0540498076054157
0.266,1.0694407167159752
0.267,1.0831430431180127
0.268,1.0951643831791205
0.269,1.1055142134684819
0.27,1.114203869358615
0.271,1.1212465218231968
0.272,1.1266571524589424
0.273,1.1304525267612102
0.274,1.132651165684624
0.275,1.1332733155217654
0.276,1.1323409161344118
0.277,1.129877567573486
0.278,1.1259084951253666
0.279,1.1204605128236667
0.28,1.113561985467051
0.281,1.1052427891851022
0.28200000000000003,1.0955342705955184
0.28300000000000003,1.0844692045973001
0.28400000000000003,1.0720817508458587
0.28500000000000003,1.058407408957138
0.28600000000000003,1.043482972489092
0.28700000000000003,1.0273464817499
0.28800000000000003,1.0100371754834465
0.289,0.9915954414835719
0.29,0.972062766189586
0.291,0.9514816833164209
0.292,0.9298957215737176
0.293,0.907349351528907
0.294,0.8838879316700843
0.295,0.8595576537252074
0.296,0.834405487294782
0.297,0.8084791238557423
0.298,0.7818269201947812
0.299,0.7544978413298989
0.3,0.7265414029792038
0.301,0.6980076136365163
0.302,0.6689469163135059
0.303,0.6394101300083206
0.304,0.6094483909608899
0.305,0.5791130937551512
0.306,0.5484558323284973
0.307,0.5175283409487257
0.308,0.48638243521877267
0.309,0.45506995316920684
0.31,0.4236426964984886
0.311,0.3921523720205842
0.312,0.36065053337927466
0.313,0.32918852308812707
0.314,0.2978174149546797
0.315,0.2665879569468743
0.316,0.23555051455927856
0.317,0.2047550147359709
0.318,0.17425089040638309
0.319,0.14408702568964893
0.32,0.11431170182222261
0.321,0.08497254386275821
0.322,0.05611646822734384
0.323,0.027789631107265844
0.324,3.7377820495176906e-05
0.325,-0.027095806852872828
0.326,-0.053566347302206996
0.327,-0.07933162463686783
0.328,-0.10435002310891406
0.329,-0.12858097536234858
0.33,-0.1519850064645658
0.331,-0.17452377667690833
0.332,-0.19616012292265106
0.333,-0.2168580989120401
0.334,-0.23658301388549474
0.335,-0.25530146993747116
0.336,-0.2729813978850508
0.337,-0.2895920916467729
0.338,-0.3051042410988354
0.339,-0.31948996337736935
0.34,-0.3327228325970806
0.341,-0.3447779079582489
0.342,-0.3556317602157042
0.343,-0.3652624964851201
0.34400000000000003,-0.3736497833636836
0.34500000000000003,-0.3807748683439258
0.34600000000000003,-0.3866205995012779
0.34700000000000003,-0.39117144343768695
0.34800000000000003,-0.39441350146541776
0.34900000000000003,-0.3963345240169722
0.35000000000000003,-0.3969239232688837
0.35100000000000003,-0.3961727839689859
0.352,-0.39407387245854797
0.353,-0.3906216438825809
0.354,-0.3858122475834094
0.355,-0.37964353067449075
0.356,-0.3721150397933064
0.357,-0.3632280210339969
0.358,-0.35298541806227957
0.359,-0.3413918684170192
0.36,-0.3284536980046584
0.361,-0.31417891379456764
0.362,-0.29857719472516786
0.363,-0.28165988083251503
0.364,-0.2634399606148037
0.365,-0.24393205664805828
0.366,-0.22315240947001835
0.367,-0.20111885975098098
0.368,-0.1778508287720928
0.369,-0.15336929723325543
0.37,-0.1276967824145432
0.371,-0.1008573137166151
0.372,-0.07287640660728534
0.373,-0.043781035002973256
0.374,-0.013599602115342835
0.375,0.01763809020504059
0.376,0.04990087359469375
0.377,0.08315624673804622
0.378,0.1173704103269071
0.379,0.15250830338090982
0.38,0.18853364089001667
0.381,0.22540895273876926
0.382,0.26309562387075114
0.383,0.30155393565049793
0.384,0.34074310837888555
0.385,0.3806213449169018
0.386,0.4211458753716746
0.387,0.46227300279745454
0.388,0.5039581498633935
0.389,0.5461559064389588
0.39,0.5888200780469095
0.391,0.6319037351329478
0.392,0.6753592631003886
0.393,0.7191384130573937
0.394,0.7631923532236606
0.395,0.8074717209429125
0.396,0.8519266752467685
0.397,0.8965069499152435
0.398,0.9411619069785886
0.399,0.9858405906047365
0.4,1.0304917813163357
0.401,1.0750640504810425
0.402,1.11950581501845
0.403,1.1637653922669688
0.404,1.2077910549537276
0.405,1.2515310862105777
0.406,1.2949338345792478
0.40700000000000003,1.337947768948791
0.40800000000000003,1.3805215333684875
0.40900000000000003,1.4226040016796182
0.41000000000000003,1.464144331909731
0.41100000000000003,1.505092020373238
0.41200000000000003,1.5453969554226266
0.41300000000000003,1.585009470794871
0.41400000000000003,1.6238803984981107
0.41500000000000004,1.6619611211841723
0.41600000000000004,1.6992036239530974
0.417,1.73556054553637
0.418,1.770985228806305
0.419,1.805431770559683
0.42,1.8388550705245976
0.421,1.8712108795401916
0.422,1.9024558468598904
0.423,1.9325475665297005
0.424,1.9614446227940163
0.425,1.989106634482466
0.426,2.015494298332422
0.427,2.040569431202803
0.428,2.0642950111360436
0.429,2.086635217226295
0.43,2.1075554682531377
0.431,2.127022460041327
0.432,2.1450042015085167
0.433,2.161470049364191
0.434,2.176390741424422
0.435,2.1897384285085195
0.436,2.2014867048851645
0.437,2.211610637236952
0.438,2.2200867921139777
0.439,2.2268932618485584
0.44,2.232009688904731
0.441,2.235417288637863
0.442,2.2370988704413284
0.443,2.2370388572587707
0.444,2.235223303442236
0.445,2.2316399109381755
0.446,2.226278043784915
0.447,2.2191287409070055
0.448,2.210184727193651
0.449,2.1994404228500004
0.45,2.1868919510120355
0.451,2.1725371436174825
0.452,2.1563755455269122
0.453,2.138408416891039
0.454,2.118638733762055
0.455,2.097071186948491
0.456,2.0737121791150113
0.457,2.048569820130317
0.458,2.0216539206680477
0.459,1.9929759840673935
0.46,1.9625491964619768
0.461,1.9303884151871495
0.462,1.8965101554777517
0.463,1.8609325754701005
0.464,1.8236754595235796
0.465,1.7847601998790545
0.466,1.7442097766729743
0.467,1.7020487363276333
0.468,1.6583031683397704
0.46900000000000003,1.6130006804913555
0.47000000000000003,1.566170372507874
0.47100000000000003,1.5178428081911393
0.47200000000000003,1.468049986055089
0.47300000000000003,1.416825308494665
0.47400000000000003,1.3642035495192162
0.47500000000000003,1.3102208210834247
0.47600000000000003,1.2549145380501752
0.47700000000000004,1.1983233818210508
0.47800000000000004,1.1404872626716496
0.47900000000000004,1.0814472808301243
0.48,1.0212456863386448
0.481,0.959925837738645
0.482,0.8975321596220964
0.483,0.8341100990919559
0.484,0.7697060811761746
0.485,0.7043674632406903
0.486,0.6381424884478447
0.487,0.5710802383075566
0.488,0.5032305843695802
0.489,0.4346441391060386
0.49,0.3653722060341267
0.491,0.29546672912979977
0.492,0.2249802415838757
0.493,0.15396581395263592
0.494,0.08247700175566397
0.495,0.01056779257420637
0.496,-0.06170744729621491
0.497,-0.13429402658467668
0.498,-0.20713698312066833
0.499,-0.28018113819183665
0.5,-0.35337115112851947
0.501,-0.42665157405955934
0.502,-0.4999669067838456
0.503,-0.5732616517018466
0.504,-0.646480368751345
0.505,-0.7195677302916452
0.506,-0.7924685758805055
0.507,-0.8651279668882488
0.508,-0.937491240893572
0.509,-1.0095040658059145
0.51,-1.0811124936594396
0.511,-1.152263014024058
0.512,-1.222902606979383
0.513,-1.2929787955977448
0.514,-1.3624396978832172
0.515,-1.4312340781138266
0.516,-1.4993113975350185
0.517,-1.566621864352862
0.518,-1.6331164829764524
0.519,-1.6987471024594138
0.52,-1.7634664640915936
0.521,-1.8272282480926159
0.522,-1.8899871193599225
0.523,-1.9516987722250836
0.524,-2.012319974172881
0.525,-2.071808608479024
0.526,-2.130123715723119
0.527,-2.1872255341350177
0.528,-2.2430755387335624
0.529,-2.2976364792181
0.53,-2.3508724165744757
0.531,-2.40274875835828
0.532,-2.453232292619778
0.533,-2.502291220436046
0.534,-2.549895187017485
0.535,-2.596015311357104
0.536,-2.64062421439265
0.537,-2.68369604565303
0.538,-2.725206508362051
0.539,-2.7651328829741244
0.54,-2.8034540491180096
0.541,-2.840150505926495
0.542,-2.875204390731376
0.543,-2.908599496104868
0.544,-2.9403212852301404
0.545,-2.970356905585488
0.546,-2.998695200928257
0.547,-3.0253267215664263
0.548,-3.050243732907451
0.549,-3.073440222275708
0.55,-3.0949119039916613
0.551,-3.114656222707615
0.552,-3.132672354996721
0.553,-3.148961209193553
0.554,-3.163525423486501
0.555,-3.1763693622638645
0.556,-3.187499110717404
0.557,-3.196922467708757
0.558,-3.2046489369059934
0.559,-3.210689716199216
0.56,-3.2150576854060127
0.561,-3.2177673922791374
0.562,-3.21883503683058
0.5630000000000001,-3.2182784539879314
0.5640000000000001,-3.2161170946005084
0.5650000000000001,-3.212372004814607
0.5660000000000001,-3.2070658038385806
0.5670000000000001,-3.2002226601203514
0.5680000000000001,-3.1918682659613884
0.5690000000000001,-3.1820298105929137
0.5700000000000001,-3.170735951741473
0.5710000000000001,-3.158016785712732
0.5720000000000001,-3.1439038160236787
0.5730000000000001,-3.128429920614966
0.5740000000000001,-3.1116293176766883
0.5750000000000001,-3.093537530121948
0.5760000000000001,-3.074191348744331
0.577,-3.0536287940964035
0.578,-3.0318890771279565
0.579,-3.00901255862363
0.58,-2.9850407074810414
0.581,-2.960016057871658
0.582,-2.9339821653275857
0.583,-2.9069835617988558
0.584,-2.8790657097264996
0.585,-2.850274955178088
0.586,-2.820658480092804
0.587,-2.7902642536846765
0.588,-2.7591409830528906
0.589,-2.7273380630492183
0.59,-2.6949055254533096
0.591,-2.6618939875071055
0.592,-2.628354599860583
0.593,-2.594338993981308
0.594,-2.5598992290812226
0.595,-2.525087738614009
0.596,-2.489957276397459
0.597,-2.4545608624151383
0.598,-2.4189517283522037
0.599,-2.383183262920557
0.6,-2.3473089570284347
0.601,-2.311382348850092
0.602,-2.2754569688509423
0.603,-2.2395862848240133
0.604,-2.2038236469929586
0.605,-2.1682222332374943
0.606,-2.1328349944964278
0.607,-2.0977146004035863
0.608,-2.0629133852116937
0.609,-2.02848329405873
0.61,-1.994475829631305
0.611,-1.9609419992788237
0.612,-1.9279322626321687
0.613,-1.8954964797795912
0.614,-1.863683860052502
0.615,-1.832542911472812
0.616,-1.8021213909130118
0.617,-1.7724662550194603
0.618,-1.7436236119484076
0.619,-1.7156386739637401
0.62,-1.688555710944208
0.621,-1.662418004847465
0.622,-1.63726780517666
0.623,-1.6131462854948357
0.624,-1.590093501031188
0.625,-1.568148347421863
0.626,-1.5473485206273097
0.627,-1.5277304780664949
0.628,-1.509329401007527
0.629,-1.4921791582525685
0.63,-1.4763122711539787
0.631,-1.4617598799969174
0.632,-1.4485517117825115
0.633,-1.4367160494442324
0.634,-1.4262797025285558
0.635,-1.4172679793697012
0.636,-1.4097046607864263
0.637,-1.4036119753277343
0.638,-1.3990105760923865
0.639,-1.3959195191457099
0.64,-1.3943562435556858
0.641,-1.3943365530682756
0.642,-1.395874599440838
0.643,-1.398982867450229
0.644,-1.403672161591007
0.645,-1.409951594476996
0.646,-1.4178285769581058
0.647,-1.4273088099623692
0.648,-1.4383962780713626
0.649,-1.4510932448357046
0.65,-1.4654002498351382
0.651,-1.481316107486375
0.652,-1.4988379075997411
0.653,-1.5179610176841842
0.654,-1.538679086998168
0.655,-1.5609840523424183
0.656,-1.584866145588671
0.657,-1.6103139029366151
0.658,-1.6373141758898713
0.659,-1.6658521439396343
0.66,-1.6959113289432657
0.661,-1.7274736111831583
0.662,-1.7605192470896212
0.663,-1.7950268886097256
0.664,-1.8309736042025553
0.665,-1.868334901439435
0.666,-1.9070847511862508
0.667,-1.9471956133433295
0.668,-1.9886384641166677
0.669,-2.0313828247928774
0.67,-2.075396791988603
0.671,-2.1206470693436756
0.672,-2.1670990006258184
0.673,-2.214716604213275
0.674,-2.263462608920308
0.675,-2.3132984911291885
0.676,-2.364184513190906
0.677,-2.4160797630556097
0.678,-2.4689421950924393
0.679,-2.5227286720573208
0.68,-2.577395008165964
0.681,-2.6328960132283505
0.682,-2.689185537799741
0.683,-2.746216519302336
0.684,-2.8039410290706455
0.685,-2.8623103202726554
0.686,-2.9212748766581287
0.687,-2.9807844620842623
0.6880000000000001,-3.040788170768479
0.6890000000000001,-3.101234478216979
0.6900000000000001,-3.1620712927773758
0.6910000000000001,-3.223246007762751
0.6920000000000001,-3.2847055540941392
0.6930000000000001,-3.346396453407775
0.6940000000000001,-3.408264871572892
0.6950000000000001,-3.4702566725657005
0.6960000000000001,-3.532317472644398
0.6970000000000001,-3.594392694770195
0.6980000000000001,-3.656427623218614
0.6990000000000001,-3.7183674583255897
0.7000000000000001,-3.7801573713122636
0.7010000000000001,-3.8417425591327063
0.7020000000000001,-3.9030682992884986
0.7030000000000001,-3.9640800045541114
0.704,-4.024723277557377
0.705,-4.08494396515908
0.706,-4.144688212576233
0.707,-4.203902517193613
0.708,-4.262533782008612
0.709,-4.320529368654675
0.71,-4.377837149949039
0.711,-4.434405561911093
0.712,-4.490183655197939
0.713,-4.545121145904637
0.714,-4.599168465676896
0.715,-4.652276811085023
0.716,-4.704398192208294
0.717,-4.755485480380092
0.718,-4.805492455044666
0.719,-4.85437384967742
0.72,-4.902085396721611
0.721,-4.948583871495151
0.722,-4.9938271350224595
0.723,-5.037774175747198
0.724,-5.080385150082977
0.725,-5.121621421760204
0.726,-5.1614455999285695
0.727,-5.19982157597574
0.728,-5.236714559024311
0.729,-5.2720911100703
0.73,-5.305919174727823
0.731,-5.338168114546077
0.732,-5.368808736866148
0.733,-5.397813323186588
0.734,-5.425155656008336
0.735,-5.450811044131035
0.736,-5.474756346374257
0.737,-5.496969993698982
0.738,-5.517432009706069
